# Mineral: Nchwaningite; Exposure [kg Myr]: 100.0; sigma [nm]:15.0
# Columns: m [GeV], 95% upper limit [cm^2], 5-sig discovery reach [cm^2]
3.162277660168379412e-01 2.539707970091411746e-43 9.908259123885719019e-43
3.511191734215131643e-01 1.741276568465369248e-43 6.793308384225145640e-43
3.898603702549072736e-01 1.404352978438327791e-43 5.478855591127990048e-43
4.328761281083058354e-01 1.233183822795257004e-43 4.811066865770235599e-43
4.806380863064390607e-01 1.076634842555822224e-43 4.200316385770539603e-43
5.336699231206309957e-01 8.125172270083901377e-44 3.169904304993947813e-43
5.925530975545677537e-01 7.905065839114443929e-44 3.084033347444424705e-43
6.579332246575679832e-01 7.230619942332249711e-44 2.820909209194823361e-43
7.305271542664454332e-01 6.558437108671928714e-44 2.558667968352691884e-43
8.111308307896871739e-01 6.085168025117198269e-44 2.374029704016520672e-43
9.006280202112786348e-01 5.632954832025538052e-44 2.197606054165524133e-43
1.000000000000000000e+00 5.182261359724979106e-44 2.021775298756388307e-43
1.110336318167637781e+00 5.160720504314229289e-44 2.013371483055003485e-43
1.232846739442066131e+00 4.874231014736643802e-44 1.901602250827003999e-43
1.368874509537080897e+00 4.532397570081807276e-44 1.768241471291053766e-43
1.519911082952933867e+00 4.156524825117466999e-44 1.621600810294945285e-43
1.687612475788147881e+00 3.744485284319938550e-44 1.460850259932973837e-43
1.873817422860383886e+00 3.300701019521049894e-44 1.287715019877313709e-43
2.080567538217171109e+00 2.855116542738959623e-44 1.113877456286131073e-43
2.310129700083159765e+00 2.437050366411484906e-44 9.507757117247030443e-44
2.565020905680045704e+00 2.051408010587557210e-44 8.003235953535566500e-44
2.848035868435801810e+00 1.712600430616264097e-44 6.681433078943107906e-44
3.162277660168379523e+00 1.423412109031032005e-44 5.553211700890362000e-44
3.511191734215131088e+00 1.181729902670058788e-44 4.610327733734581960e-44
3.898603702549071848e+00 9.836414918574168868e-45 3.837517896192615739e-44
4.328761281083059131e+00 8.239319453171196677e-45 3.214436978892271519e-44
4.806380863064391384e+00 6.969200456559135925e-45 2.718920632729485616e-44
5.336699231206309513e+00 5.987005988152312156e-45 2.335733375862636661e-44
5.925530975545677315e+00 5.269174740294836770e-45 2.055683145885286201e-44
6.579332246575678944e+00 4.827077986463573789e-45 1.883206260890071684e-44
7.305271542664456774e+00 4.787195605469082348e-45 1.867646796178988243e-44
8.111308307896871739e+00 5.666598048535315037e-45 2.210731409949159473e-44
9.006280202112785460e+00 5.990421337434854537e-45 2.337065819044630373e-44
1.000000000000000000e+01 1.888373087218579308e-45 7.367181617365357244e-45
1.110336318167637870e+01 7.279252038018882705e-46 2.839882233317098016e-45
1.232846739442066486e+01 3.570162153782258839e-46 1.392840915197480070e-45
1.368874509537081252e+01 2.052825286893263751e-46 8.008765227394001935e-46
1.519911082952933867e+01 1.323210187643061515e-46 5.162290140807412675e-46
1.687612475788147748e+01 9.291406367653350069e-47 3.624891641093585973e-46
1.873817422860383886e+01 6.968221152881456811e-47 2.718538573267780227e-46
2.080567538217171375e+01 5.495386676678323046e-47 2.143936067441572926e-46
2.310129700083160387e+01 4.505685493781352436e-47 1.757820187551397231e-46
2.565020905680045615e+01 3.810625217103945192e-47 1.486653683010657171e-46
2.848035868435801987e+01 3.306021872265657541e-47 1.289790864359217026e-46
3.162277660168379256e+01 2.927334837250756737e-47 1.142052253701214342e-46
3.511191734215130822e+01 2.629703561340305986e-47 1.025936234071314555e-46
3.898603702549071670e+01 2.378951774847695372e-47 9.281094876262645712e-47
4.328761281083057355e+01 2.151914438454539801e-47 8.395345496305694826e-47
4.806380863064389075e+01 1.938812751585020636e-47 7.563963794903090704e-47
5.336699231206312533e+01 1.741071135899250768e-47 6.792506922355687487e-47
5.925530975545680690e+01 1.564609865828139094e-47 6.104071870064372015e-47
6.579332246575683030e+01 1.414199489743105573e-47 5.517270159504721620e-47
7.305271542664456774e+01 1.291243033811345036e-47 5.037575469928789460e-47
8.111308307896872805e+01 1.195060158539074199e-47 4.662333567040349368e-47
9.006280202112786526e+01 1.122350467440157596e-47 4.378668488728285682e-47
1.000000000000000000e+02 1.070412266181131404e-47 4.176040012319465801e-47
1.110336318167637870e+02 1.036294064313092440e-47 4.042933376072069165e-47
1.232846739442065882e+02 1.017648610243152379e-47 3.970191158233209689e-47
1.368874509537080542e+02 1.012557050769517958e-47 3.950327263957354458e-47
1.519911082952934578e+02 1.019623282458222959e-47 3.977895021914417028e-47
1.687612475788148743e+02 1.037876883114819034e-47 4.049108487155057261e-47
1.873817422860385022e+02 1.066709843168317493e-47 4.161595608856859061e-47
2.080567538217171659e+02 1.105817497107692020e-47 4.314167783895010168e-47
2.310129700083160458e+02 1.155152470373941874e-47 4.506640188103901521e-47
2.565020905680045757e+02 1.214970043281701517e-47 4.740008756266750678e-47
2.848035868435802058e+02 1.285487561270171814e-47 5.015121426397044913e-47
3.162277660168379612e+02 1.367256413281348682e-47 5.334129353107706175e-47
3.511191734215130964e+02 1.461168021039651003e-47 5.700510273815092726e-47
3.898603702549071954e+02 1.568042119751119107e-47 6.117462252599821735e-47
4.328761281083056929e+02 1.688951080822135400e-47 6.589168972742266744e-47
4.806380863064393907e+02 1.825142107529636533e-47 7.120496195736880478e-47
5.336699231206312106e+02 1.978044115817692918e-47 7.717018605605152752e-47
5.925530975545680121e+02 2.149284939439856617e-47 8.385086931970619522e-47
6.579332246575681893e+02 2.340706228205020897e-47 9.131886073151067802e-47
7.305271542664456774e+02 2.554375398486279116e-47 9.965481719132430126e-47
8.111308307896872520e+02 2.792611160787694386e-47 1.089491994323419591e-46
9.006280202112785673e+02 3.058006688752097436e-47 1.193031759223914073e-46
1.000000000000000000e+03 3.353456670009408583e-47 1.308296782089486033e-46
1.110336318167637955e+03 3.682188433663550910e-47 1.436546153076024071e-46
1.232846739442065882e+03 4.047796608433740164e-47 1.579182258332784719e-46
1.368874509537082076e+03 4.453943230499159853e-47 1.737633781937296021e-46
1.519911082952934748e+03 4.905725031599774949e-47 1.913889131193044351e-46
1.687612475788148686e+03 5.407780333100976446e-47 2.109757872023724614e-46
1.873817422860385022e+03 5.965609915674410162e-47 2.327386044876513545e-46
2.080567538217171659e+03 6.585326732076316738e-47 2.569158519218066025e-46
2.310129700083160515e+03 7.273723163704192994e-47 2.837725232590302738e-46
2.565020905680045871e+03 8.038939499501471426e-47 3.136261986823384349e-46
2.848035868435802058e+03 8.888228859713559083e-47 3.467598469255166469e-46
3.162277660168379498e+03 9.831442009829264923e-47 3.835577796424288527e-46
3.511191734215134602e+03 1.087891957858756127e-46 4.244234197078944517e-46
3.898603702549071841e+03 1.204214563186817480e-46 4.698047993440122328e-46
4.328761281083061476e+03 1.333387350614152718e-46 5.201994693083143977e-46
4.806380863064388905e+03 1.476826553295296202e-46 5.761599500181172204e-46
5.336699231206313016e+03 1.636104843058059862e-46 6.382997939042634991e-46
5.925530975545674664e+03 1.812968563753370209e-46 7.073003087233200748e-46
6.579332246575682802e+03 2.009356878972705191e-46 7.839180277292763529e-46
7.305271542664449044e+03 2.227423032319948746e-46 8.689930040241187497e-46
8.111308307896872066e+03 2.469557955199222279e-46 9.634580207537223456e-46
9.006280202112795450e+03 2.738416322301671639e-46 1.068348756233832784e-45
1.000000000000000000e+04 3.036946288133561712e-46 1.184815385174665506e-45
