# Mineral: Nchwaningite; Exposure [kg Myr]: 0.01; sigma [nm]:1.0
# Columns: m [GeV], 95% upper limit [cm^2], 5-sig discovery reach [cm^2]
3.162277660168379412e-01 2.267602292343683325e-43 8.867501293821285792e-43
3.511191734215131643e-01 1.892322195545125319e-43 7.394779168445908762e-43
3.898603702549072736e-01 1.616864116749132512e-43 6.313337118588499184e-43
4.328761281083058354e-01 1.406678308884737362e-43 5.488651641936692140e-43
4.806380863064390607e-01 1.232945756426104601e-43 4.827030280547336110e-43
5.336699231206309957e-01 1.034305808163630168e-43 4.035176516871906309e-43
5.925530975545677537e-01 7.798673963187515200e-44 3.040297722562528350e-43
6.579332246575679832e-01 5.408658887251076336e-44 2.112796864179873308e-43
7.305271542664454332e-01 3.645656460598908833e-44 1.426656756171701672e-43
8.111308307896871739e-01 2.543202613273459630e-44 9.957323766985669532e-44
9.006280202112786348e-01 1.842601092010247431e-44 7.213289390944922450e-44
1.000000000000000000e+00 1.389593157896475868e-44 5.438181496293810240e-44
1.110336318167637781e+00 1.086652571555743285e-44 4.251298801231129824e-44
1.232846739442066131e+00 8.664573248915762048e-45 3.422762946809586942e-44
1.368874509537080897e+00 7.150170188910775114e-45 2.821325332814483652e-44
1.519911082952933867e+00 6.024540559891641087e-45 2.375293871134995660e-44
1.687612475788147881e+00 5.146919024836444176e-45 2.028175222347268256e-44
1.873817422860383886e+00 4.445062983573788557e-45 1.750921945190893647e-44
2.080567538217171109e+00 3.870936279384432289e-45 1.524314263245237991e-44
2.310129700083159765e+00 3.401251044518021912e-45 1.339093139470617885e-44
2.565020905680045704e+00 3.020729143758476183e-45 1.189223396531784834e-44
2.848035868435801810e+00 2.722678927180719380e-45 1.072081942766202380e-44
3.162277660168379523e+00 2.506753414628989419e-45 9.875679436305953225e-45
3.511191734215131088e+00 2.376784078199588345e-45 9.372692103809201924e-45
3.898603702549071848e+00 2.342653574411367291e-45 9.252409458276163586e-45
4.328761281083059131e+00 2.456700362475730891e-45 9.612311860155738962e-45
4.806380863064391384e+00 2.719515304436812489e-45 1.064457820909133679e-44
5.336699231206309513e+00 3.183937504032854392e-45 1.246305818566179464e-44
5.925530975545677315e+00 3.415137610824632744e-45 1.337099980099986050e-44
6.579332246575678944e+00 2.577978904695843104e-45 1.010756023280675418e-44
7.305271542664456774e+00 1.626666366457112910e-45 6.381475919999135818e-45
8.111308307896871739e+00 1.068215736167649823e-45 4.189460259997870542e-45
9.006280202112785460e+00 7.546524773431531545e-46 2.958554480969192960e-45
1.000000000000000000e+01 5.675601669310971183e-46 2.224384812492916475e-45
1.110336318167637870e+01 4.487380260254948043e-46 1.758272464454258095e-45
1.232846739442066486e+01 3.692834569901315067e-46 1.446664719280278242e-45
1.368874509537081252e+01 3.138675004565077959e-46 1.229368460135449238e-45
1.519911082952933867e+01 2.739358131534221899e-46 1.072812315885063950e-45
1.687612475788147748e+01 2.445280420015265940e-46 9.575385343418235925e-46
1.873817422860383886e+01 2.227357294021803538e-46 8.721378655261781666e-46
2.080567538217171375e+01 2.067393135251763653e-46 8.094678463041539014e-46
2.310129700083160387e+01 1.952601834196213176e-46 7.645048995830584837e-46
2.565020905680045615e+01 1.872574242310982405e-46 7.331599300768030778e-46
2.848035868435801987e+01 1.818018561601925781e-46 7.117893209596900225e-46
3.162277660168379256e+01 1.780716573431543403e-46 6.971790536896366988e-46
3.511191734215130822e+01 1.754104346618100095e-46 6.867684507191882593e-46
3.898603702549071670e+01 1.733887699718130403e-46 6.788847365550570692e-46
4.328761281083057355e+01 1.718231417001297607e-46 6.728125730271803412e-46
4.806380863064389075e+01 1.707346922703158368e-46 6.686323638962830759e-46
5.336699231206312533e+01 1.702693831729652107e-46 6.669100924837605447e-46
5.925530975545680690e+01 1.706185076940966700e-46 6.683886927149175008e-46
6.579332246575683030e+01 1.719656573655764989e-46 6.737819949862403597e-46
7.305271542664456774e+01 1.744641110164180733e-46 6.836868445818072752e-46
8.111308307896872805e+01 1.782349070164580376e-46 6.985755681123016875e-46
9.006280202112786526e+01 1.833759575093044768e-46 7.188313419878734433e-46
1.000000000000000000e+02 1.899730132118031736e-46 7.447907257767179011e-46
1.110336318167637870e+02 1.981098571317278636e-46 7.767832062867034240e-46
1.232846739442065882e+02 2.078764077958954943e-46 8.151626584971172345e-46
1.368874509537080542e+02 2.193745005751346582e-46 8.603298163188782179e-46
1.519911082952934578e+02 2.327222538836553765e-46 9.127492791099001840e-46
1.687612475788148743e+02 2.480571724118500253e-46 9.729616291427330845e-46
1.873817422860385022e+02 2.655387140995349991e-46 1.041593482288475627e-45
2.080567538217171659e+02 2.853506144973014222e-46 1.119366607330708441e-45
2.310129700083160458e+02 3.077031387887866692e-46 1.207106771238123157e-45
2.565020905680045757e+02 3.328351631663789689e-46 1.305751926534910140e-45
2.848035868435802058e+02 3.610171721263230844e-46 1.416363980332838521e-45
3.162277660168379612e+02 3.925538411051397060e-46 1.540138947993107872e-45
3.511191734215130964e+02 4.277874565775674726e-46 1.678420384403641291e-45
3.898603702549071954e+02 4.671012314713684589e-46 1.832712408693171937e-45
4.328761281083056929e+02 5.109238418087092681e-46 2.004697512038627694e-45
4.806380863064393907e+02 5.597338152662074630e-46 2.196253788552693340e-45
5.336699231206312106e+02 6.140646944836723061e-46 2.409475204724370414e-45
5.925530975545680121e+02 6.745116109029722505e-46 2.646697393666025566e-45
6.579332246575681893e+02 7.417347828741254845e-46 2.910511418415201106e-45
7.305271542664456774e+02 8.164711345354144008e-46 3.203809324591713095e-45
8.111308307896872520e+02 8.995393492280095374e-46 3.529804006795856336e-45
9.006280202112785673e+02 9.918496660787051362e-46 3.892067646658037756e-45
1.000000000000000000e+03 1.094413733445861455e-45 4.294570384397046507e-45
1.110336318167637955e+03 1.208355707240249937e-45 4.741723873876110452e-45
1.232846739442065882e+03 1.334924568520566446e-45 5.238429622485471922e-45
1.368874509537082076e+03 1.475507812090763983e-45 5.790132711136228432e-45
1.519911082952934748e+03 1.631646656048007152e-45 6.402881482830076030e-45
1.687612475788148686e+03 1.805052892964059325e-45 7.083443674305196157e-45
1.873817422860385022e+03 1.997627669962685481e-45 7.839180116096644347e-45
2.080567538217171659e+03 2.211482330903039210e-45 8.678426525564380703e-45
2.310129700083160515e+03 2.448961560714216478e-45 9.610384334214861561e-45
2.565020905680045871e+03 2.712669089807010994e-45 1.064527156168968403e-44
2.848035868435802058e+03 3.005496237644794787e-45 1.179443483158001334e-44
3.162277660168379498e+03 3.330653612146473087e-45 1.307047377188569343e-44
3.511191734215134602e+03 3.691706310281885993e-45 1.448738305615547221e-44
3.898603702549071841e+03 4.092613011879415700e-45 1.606069613469535847e-44
4.328761281083061476e+03 4.537769370816800987e-45 1.780766182848920637e-44
4.806380863064388905e+03 5.032056211300098746e-45 1.974743437976655840e-44
5.336699231206313016e+03 5.580893044683488726e-45 2.190128204566113622e-44
5.925530975545674664e+03 6.190297490083049616e-45 2.429282028768662333e-44
6.579332246575682802e+03 6.866951252987153998e-45 2.694827069730698587e-44
7.305271542664449044e+03 7.618273385248361994e-45 2.989674849643552833e-44
8.111308307896872066e+03 8.452451629682856163e-45 3.317058176504203163e-44
9.006280202112795450e+03 9.378732741149382747e-45 3.680566589591137370e-44
1.000000000000000000e+04 1.040722277440453112e-44 4.084185716286243837e-44
