# Mineral: Phlogopite; Exposure [kg Myr]: 100.0; sigma [nm]:15.0
# Columns: m [GeV], 95% upper limit [cm^2], 5-sig discovery reach [cm^2]
3.162277660168379412e-01 2.712278936263940672e-43 1.058151678588187180e-42
3.511191734215131643e-01 2.058876758023494415e-43 8.032374061458842273e-43
3.898603702549072736e-01 1.686110648046181610e-43 6.578087484516232730e-43
4.328761281083058354e-01 1.435077363842301289e-43 5.598721802357677890e-43
4.806380863064390607e-01 1.269869276686362481e-43 4.954189219801101460e-43
5.336699231206309957e-01 1.153627435424605152e-43 4.500690511358010443e-43
5.925530975545677537e-01 1.067918840024893284e-43 4.166312314193058426e-43
6.579332246575679832e-01 1.002598408931328955e-43 3.911475236473582146e-43
7.305271542664454332e-01 9.420676328734923424e-44 3.675324221784536335e-43
8.111308307896871739e-01 8.776989594725590457e-44 3.424200272484861220e-43
9.006280202112786348e-01 8.039415834141530772e-44 3.136447821064918340e-43
1.000000000000000000e+00 7.201022539801528022e-44 2.809362262178794152e-43
1.110336318167637781e+00 6.286363745404043792e-44 2.452522954212807426e-43
1.232846739442066131e+00 5.367772420869162982e-44 2.094149433334444387e-43
1.368874509537080897e+00 4.504513563866141681e-44 1.757362978084336248e-43
1.519911082952933867e+00 3.736971164081830655e-44 1.457918747677077774e-43
1.687612475788147881e+00 3.074996676905011631e-44 1.199660127804604079e-43
1.873817422860383886e+00 2.517500527579111970e-44 9.821620385305573007e-44
2.080567538217171109e+00 2.053230255130387423e-44 8.010345145352135371e-44
2.310129700083159765e+00 1.671593167809729959e-44 6.521449887712740652e-44
2.565020905680045704e+00 1.358437287451532607e-44 5.299722962689194064e-44
2.848035868435801810e+00 1.103397085316939752e-44 4.304724939484667090e-44
3.162277660168379523e+00 8.960633136392837280e-45 3.495845824599331178e-44
3.511191734215131088e+00 7.286372972455480839e-45 2.842660350503518611e-44
3.898603702549071848e+00 5.939866713971141929e-45 2.317342751861794842e-44
4.328761281083059131e+00 4.870680977030454817e-45 1.900217261138948682e-44
4.806380863064391384e+00 4.031011770828558559e-45 1.572633925914136803e-44
5.336699231206309513e+00 3.388368652097412456e-45 1.321917126205032158e-44
5.925530975545677315e+00 2.922903185568310870e-45 1.140323316605549075e-44
6.579332246575678944e+00 2.636064586482126940e-45 1.028417884959564109e-44
7.305271542664456774e+00 2.580001584762781109e-45 1.006545813255267371e-44
8.111308307896871739e+00 3.025536418352433063e-45 1.180364009359313171e-44
9.006280202112785460e+00 5.755797386933505477e-45 2.245531086484278472e-44
1.000000000000000000e+01 2.164533866125382664e-45 8.444578148575295277e-45
1.110336318167637870e+01 6.749393089748255300e-46 2.633166350215546967e-45
1.232846739442066486e+01 3.007543597659109846e-46 1.173344401912373580e-45
1.368874509537081252e+01 1.597405159060331846e-46 6.232017392626433984e-46
1.519911082952933867e+01 9.496611152098644670e-47 3.704948962710445977e-46
1.687612475788147748e+01 6.116750671784339960e-47 2.386351161864483264e-46
1.873817422860383886e+01 4.183711212491802464e-47 1.632207138814580387e-46
2.080567538217171375e+01 3.003114492903859323e-47 1.171616458459084604e-46
2.310129700083160387e+01 2.241575676394268381e-47 8.745144287874326206e-47
2.565020905680045615e+01 1.733221977403692495e-47 6.761884702323183768e-47
2.848035868435801987e+01 1.383221106888723993e-47 5.396413018378726697e-47
3.162277660168379256e+01 1.136030657833084134e-47 4.432039534877473890e-47
3.511191734215130822e+01 9.588222776760818725e-48 3.740689753643992278e-47
3.898603702549071670e+01 8.292723507199098631e-48 3.235271705238993623e-47
4.328761281083057355e+01 7.338658609486835054e-48 2.863058744581301474e-47
4.806380863064389075e+01 6.633951140004817872e-48 2.588128544086073092e-47
5.336699231206312533e+01 6.115901190417421363e-48 2.386019750473746539e-47
5.925530975545680690e+01 5.741312900865226596e-48 2.239880198944020880e-47
6.579332246575683030e+01 5.480024363386617509e-48 2.137942709833964127e-47
7.305271542664456774e+01 5.310182252785091725e-48 2.071681562418381419e-47
8.111308307896872805e+01 5.217161980013905272e-48 2.035391210250124908e-47
9.006280202112786526e+01 5.190247579273772329e-48 2.024890992908689938e-47
1.000000000000000000e+02 5.222116079647362388e-48 2.037323971948394933e-47
1.110336318167637870e+02 5.307939661489432575e-48 2.070806651762194537e-47
1.232846739442065882e+02 5.444808347182555788e-48 2.124203751734452912e-47
1.368874509537080542e+02 5.631316082148552354e-48 2.196966722454491637e-47
1.519911082952934578e+02 5.867331467504544675e-48 2.289044300777275781e-47
1.687612475788148743e+02 6.153771571919382651e-48 2.400794266184240762e-47
1.873817422860385022e+02 6.492492547363593941e-48 2.532940766290542288e-47
2.080567538217171659e+02 6.886240732223047784e-48 2.686555240517147607e-47
2.310129700083160458e+02 7.338561651562276200e-48 2.863020918018092114e-47
2.565020905680045757e+02 7.853834654015848377e-48 3.064046330702402914e-47
2.848035868435802058e+02 8.437237037080040420e-48 3.291651317297943714e-47
3.162277660168379612e+02 9.094811293343054328e-48 3.548193258378510882e-47
3.511191734215130964e+02 9.833483358825920122e-48 3.836374195658346650e-47
3.898603702549071954e+02 1.066112901128127410e-47 4.159266736212524748e-47
4.328761281083056929e+02 1.158664549505531115e-47 4.520341995756269691e-47
4.806380863064393907e+02 1.262003984712557618e-47 4.923504057617407831e-47
5.336699231206312106e+02 1.377253030288238822e-47 5.373129534558862682e-47
5.925530975545680121e+02 1.505666775800694385e-47 5.874114955162290920e-47
6.579332246575681893e+02 1.648646203242288364e-47 6.431926023662870536e-47
7.305271542664456774e+02 1.807753174628560787e-47 7.052656091638013647e-47
8.111308307896872520e+02 1.984727706569805062e-47 7.743093551949297924e-47
9.006280202112785673e+02 2.181506552513625469e-47 8.510794334350820905e-47
1.000000000000000000e+03 2.400244383344732239e-47 9.364164538167316282e-47
1.110336318167637955e+03 2.643337253144658233e-47 1.031255198015340531e-46
1.232846739442065882e+03 2.913448694155191863e-47 1.136634799976514653e-46
1.368874509537082076e+03 3.213538805742646824e-47 1.253710094504068798e-46
1.519911082952934748e+03 3.546896641851271985e-47 1.383764252700186136e-46
1.687612475788148686e+03 3.917176267901504520e-47 1.528222848980023327e-46
1.873817422860385022e+03 4.328436775556788418e-47 1.688669472184606805e-46
2.080567538217171659e+03 4.785186187331766887e-47 1.866862854252308638e-46
2.310129700083160515e+03 5.292432970348262701e-47 2.064756967476042296e-46
2.565020905680045871e+03 5.855737661359787825e-47 2.284521165170066046e-46
2.848035868435802058e+03 6.481276531302025204e-47 2.528565019362768521e-46
3.162277660168379498e+03 7.175908151559626306e-47 2.799564290547052477e-46
3.511191734215134602e+03 7.947247749072351675e-47 3.100489936120181561e-46
3.898603702549071841e+03 8.803752721636273556e-47 3.434641472792900741e-46
4.328761281083061476e+03 9.754813941111297708e-47 3.805682597056416268e-46
4.806380863064388905e+03 1.081085905451451603e-46 4.217681486430132094e-46
5.336699231206313016e+03 1.198346680505113791e-46 4.675155399959466461e-46
5.925530975545674664e+03 1.328549399947911627e-46 5.183120212475844848e-46
6.579332246575682802e+03 1.473121644619024478e-46 5.747145399305349777e-46
7.305271542664449044e+03 1.633648548506164031e-46 6.373415103853951053e-46
8.111308307896872066e+03 1.811890178831158355e-46 7.068795943195226941e-46
9.006280202112795450e+03 2.009800833846148351e-46 7.840912295295303223e-46
1.000000000000000000e+04 2.229550470276465966e-46 8.698229894709262383e-46
