# Mineral: Olivine; Exposure [kg Myr]: 100.0; sigma [nm]:15.0
# Columns: m [GeV], 95% upper limit [cm^2], 5-sig discovery reach [cm^2]
3.162277660168379412e-01 2.024204342023172836e-43 7.897105248576395952e-43
3.511191734215131643e-01 1.635513211886939770e-43 6.380689785893430322e-43
3.898603702549072736e-01 1.443728258249089746e-43 5.632471865138615039e-43
4.328761281083058354e-01 1.183663236037109998e-43 4.617870320598577709e-43
4.806380863064390607e-01 1.067517609646525265e-43 4.164746978885194451e-43
5.336699231206309957e-01 9.852847421153449480e-44 3.843928770809966279e-43
5.925530975545677537e-01 9.249631455290051619e-44 3.608593835934582981e-43
6.579332246575679832e-01 8.717418606503822964e-44 3.400959616688282708e-43
7.305271542664454332e-01 8.393788871842359037e-44 3.274700719642543156e-43
8.111308307896871739e-01 8.182448810369076636e-44 3.192249819106137747e-43
9.006280202112786348e-01 7.995756050240998674e-44 3.119414663817168060e-43
1.000000000000000000e+00 7.984477767626283109e-44 3.115014624602620251e-43
1.110336318167637781e+00 8.007169140797031661e-44 3.123867296165661175e-43
1.232846739442066131e+00 8.073026316968072410e-44 3.149560406332440233e-43
1.368874509537080897e+00 8.139214451819289311e-44 3.175382634665603459e-43
1.519911082952933867e+00 8.215651290227172323e-44 3.205203228626594351e-43
1.687612475788147881e+00 8.241836353091476209e-44 3.215418906613595671e-43
1.873817422860383886e+00 8.109428398588730223e-44 3.163762088635832674e-43
2.080567538217171109e+00 7.734836174651036047e-44 3.017621002169355314e-43
2.310129700083159765e+00 7.065347924084643797e-44 2.756431009259658933e-43
2.565020905680045704e+00 6.163042676570332216e-44 2.404411237439521589e-43
2.848035868435801810e+00 5.189810964197706074e-44 2.024720654611452537e-43
3.162277660168379523e+00 4.259941644705403801e-44 1.661947206743373857e-43
3.511191734215131088e+00 3.460311602279008676e-44 1.349984502491227858e-43
3.898603702549071848e+00 2.808326617461992651e-44 1.095623125099591024e-43
4.328761281083059131e+00 2.292823505876692411e-44 8.945079390661082279e-44
4.806380863064391384e+00 1.894487409368079771e-44 7.391035654497817365e-44
5.336699231206309513e+00 1.593050224597973787e-44 6.215027321473083228e-44
5.925530975545677315e+00 1.371557395814601532e-44 5.350908939551749028e-44
6.579332246575678944e+00 1.219760231031123663e-44 4.758696897593342049e-44
7.305271542664456774e+00 1.130398301410049778e-44 4.410065808931533792e-44
8.111308307896871739e+00 1.093825085925151660e-44 4.267381334855942792e-44
9.006280202112785460e+00 1.047200805246745141e-44 4.085484258551613522e-44
1.000000000000000000e+01 8.222100107474153514e-45 3.207719130182133107e-44
1.110336318167637870e+01 4.985592653811592119e-45 1.945048189864456176e-44
1.232846739442066486e+01 2.868836970645903211e-45 1.119230258915155192e-44
1.368874509537081252e+01 1.736757008816159327e-45 6.775676054580324437e-45
1.519911082952933867e+01 1.119173558056363019e-45 4.366274291537729888e-45
1.687612475788147748e+01 7.623110807373441232e-46 2.974033160467308180e-45
1.873817422860383886e+01 5.447197815107297153e-46 2.125135963927562257e-45
2.080567538217171375e+01 4.060941061812144610e-46 1.584310353832299041e-45
2.310129700083160387e+01 3.145341478223524867e-46 1.227104012207463640e-45
2.565020905680045615e+01 2.522327731055126025e-46 9.840452937491623281e-46
2.848035868435801987e+01 2.087836369942151879e-46 8.145355294890533557e-46
3.162277660168379256e+01 1.778502322172488853e-46 6.938538630440741167e-46
3.511191734215130822e+01 1.554384707169756152e-46 6.064180070391649046e-46
3.898603702549071670e+01 1.389642649272760017e-46 5.421465625475815248e-46
4.328761281083057355e+01 1.267303376040399515e-46 4.944178774196431948e-46
4.806380863064389075e+01 1.176177648246667282e-46 4.588666512760926952e-46
5.336699231206312533e+01 1.108860329991520675e-46 4.326038903346027504e-46
5.925530975545680690e+01 1.060392943142410623e-46 4.136951246964294043e-46
6.579332246575683030e+01 1.027503773736951407e-46 4.008639481723451938e-46
7.305271542664456774e+01 1.007844575864223117e-46 3.931942306699930199e-46
8.111308307896872805e+01 9.998471087927639616e-47 3.900741484789721543e-46
9.006280202112786526e+01 1.002528546492159738e-46 3.911202679487319139e-46
1.000000000000000000e+02 1.015134234175790417e-46 3.960381727423170582e-46
1.110336318167637870e+02 1.037271967032060025e-46 4.046748505075713728e-46
1.232846739442065882e+02 1.068762387863374664e-46 4.169603279400670875e-46
1.368874509537080542e+02 1.109716750079718943e-46 4.329380087550155206e-46
1.519911082952934578e+02 1.160219116154495760e-46 4.526406885643092898e-46
1.687612475788148743e+02 1.220623741608691734e-46 4.762065744192839759e-46
1.873817422860385022e+02 1.291478324429485587e-46 5.038493418150163574e-46
2.080567538217171659e+02 1.373417425437082606e-46 5.358165543734072693e-46
2.310129700083160458e+02 1.467271125458361820e-46 5.724320546788539032e-46
2.565020905680045757e+02 1.573919168594912699e-46 6.140390606376632524e-46
2.848035868435802058e+02 1.694492778790795729e-46 6.610789009418301931e-46
3.162277660168379612e+02 1.830224911366444098e-46 7.140325931314376499e-46
3.511191734215130964e+02 1.982598883794689594e-46 7.734788294835854013e-46
3.898603702549071954e+02 2.153298185358576951e-46 8.400743960636450964e-46
4.328761281083056929e+02 2.344120022854321980e-46 9.145204439821306503e-46
4.806380863064393907e+02 2.557196943685718794e-46 9.976489520539140170e-46
5.336699231206312106e+02 2.794737099952018059e-46 1.090321395040738491e-45
5.925530975545680121e+02 3.059384576756001332e-46 1.193569319902037339e-45
6.579332246575681893e+02 3.354029196911923494e-46 1.308520144183566145e-45
7.305271542664456774e+02 3.681892157984645042e-46 1.436430565920599644e-45
8.111308307896872520e+02 4.046562246200208655e-46 1.578700691908352985e-45
9.006280202112785673e+02 4.452030524198953583e-46 1.736887570566795922e-45
1.000000000000000000e+03 4.902736542364149891e-46 1.912723220541732837e-45
1.110336318167637955e+03 5.403620737932665141e-46 2.108135073368783231e-45
1.232846739442065882e+03 5.960171698739819921e-46 2.325264412657598160e-45
1.368874509537082076e+03 6.578488340793280293e-46 2.566490631664820355e-45
1.519911082952934748e+03 7.265348302087397055e-46 2.834457916032528733e-45
1.687612475788148686e+03 8.028277733284786889e-46 3.132102471491809374e-45
1.873817422860385022e+03 8.875645792584892309e-46 3.462689389504568927e-45
2.080567538217171659e+03 9.816739927389894953e-46 3.829842017185670141e-45
2.310129700083160515e+03 1.086187470185520269e-45 4.237584414608371700e-45
2.565020905680045871e+03 1.202247407054837960e-45 4.690373452539227385e-45
2.848035868435802058e+03 1.331133685760833116e-45 5.193202384830363182e-45
3.162277660168379498e+03 1.474255769732770165e-45 5.751570004668735878e-45
3.511191734215134602e+03 1.633182862739009881e-45 6.371598306290765743e-45
3.898603702549071841e+03 1.809657431659504492e-45 7.060085241888069070e-45
4.328761281083061476e+03 2.005614347868542894e-45 7.824579398610676010e-45
4.806380863064388905e+03 2.223202273060762902e-45 8.673463431901942895e-45
5.336699231206313016e+03 2.464806818115719776e-45 9.616044416056146348e-45
5.925530975545674664e+03 2.733077002608642038e-45 1.066265707171231395e-44
6.579332246575682802e+03 3.030954236073971080e-45 1.182477683155795009e-44
7.305271542664449044e+03 3.361704519877878515e-45 1.311514547071684667e-44
8.111308307896872066e+03 3.728954209433200227e-45 1.454791062723590395e-44
9.006280202112795450e+03 4.136730150365941625e-45 1.613878238683529500e-44
1.000000000000000000e+04 4.589503223716641496e-45 1.790520316745574200e-44
