# Mineral: Sinjarite; Exposure [kg Myr]: 100.0; sigma [nm]:15.0
# Columns: m [GeV], 95% upper limit [cm^2], 5-sig discovery reach [cm^2]
3.162277660168379412e-01 1.002704891468891942e-43 3.047863663060578028e-43
3.511191734215131643e-01 8.606822238839560349e-44 2.616165631520171479e-43
3.898603702549072736e-01 7.218784516015463885e-44 2.194251888568797428e-43
4.328761281083058354e-01 6.136777088319968116e-44 1.865360392168128293e-43
4.806380863064390607e-01 5.435850353784751902e-44 1.652303774729270166e-43
5.336699231206309957e-01 5.079249141114357901e-44 1.543909780888346720e-43
5.925530975545677537e-01 4.837194423658357349e-44 1.470333818101749739e-43
6.579332246575679832e-01 4.535997629824662938e-44 1.378780782790308240e-43
7.305271542664454332e-01 4.068403300141514048e-44 1.236648857572842162e-43
8.111308307896871739e-01 3.471743003706707390e-44 1.058887335631077260e-43
9.006280202112786348e-01 2.609089163089972670e-44 7.977274029543370996e-44
1.000000000000000000e+00 1.645416178088286527e-44 5.035603378642462020e-44
1.110336318167637781e+00 9.654744199592270739e-45 2.950916541705123083e-44
1.232846739442066131e+00 5.829725888850885707e-45 1.779165581987962328e-44
1.368874509537080897e+00 3.716846097838485181e-45 1.129788062187973862e-44
1.519911082952933867e+00 2.495073410153752480e-45 7.584129336734360278e-45
1.687612475788147881e+00 1.747789485206549145e-45 5.312653910400977040e-45
1.873817422860383886e+00 1.266165313575856038e-45 3.848688964728442253e-45
2.080567538217171109e+00 9.423519811666695164e-46 2.864412436448301571e-45
2.310129700083159765e+00 7.169915991969990650e-46 2.179397607915254331e-45
2.565020905680045704e+00 5.557210338018225775e-46 1.689192862360322882e-45
2.848035868435801810e+00 4.378109191363432581e-46 1.330788353662092250e-45
3.162277660168379523e+00 3.501493855014543589e-46 1.064328695105385761e-45
3.511191734215131088e+00 2.842072539636563284e-46 8.638882382084514872e-46
3.898603702549071848e+00 2.342198612862227724e-46 7.119444718531273724e-46
4.328761281083059131e+00 1.962153897905305207e-46 5.964244931524593092e-46
4.806380863064391384e+00 1.673995212892074843e-46 5.088345758478232083e-46
5.336699231206309513e+00 1.457708453015175331e-46 4.430911490590887095e-46
5.925530975545677315e+00 1.298537300561776647e-46 3.947088208289445593e-46
6.579332246575678944e+00 1.184693454100040456e-46 3.601043698238764954e-46
7.305271542664456774e+00 1.104382803722862039e-46 3.356928091419708474e-46
8.111308307896871739e+00 1.040323463567169482e-46 3.162210645836938265e-46
9.006280202112785460e+00 9.625918830853144037e-47 2.925934487578797513e-46
1.000000000000000000e+01 8.363712961928251689e-47 2.542269120437489325e-46
1.110336318167637870e+01 6.635862960172377038e-47 2.017064618058310158e-46
1.232846739442066486e+01 4.917693940960780574e-47 1.494802787562998206e-46
1.368874509537081252e+01 3.559504652826854492e-47 1.081961899473052204e-46
1.519911082952933867e+01 2.591456495991977806e-47 7.877099389597702877e-47
1.687612475788147748e+01 1.918358682003295358e-47 5.831123164293472089e-47
1.873817422860383886e+01 1.445289707149593396e-47 4.393162952026321684e-47
2.080567538217171375e+01 1.105876702875868439e-47 3.361469009673389220e-47
2.310129700083160387e+01 8.584399905888524915e-48 2.609350045556250744e-47
2.565020905680045615e+01 6.769764437879102609e-48 2.057765870421264090e-47
2.848035868435801987e+01 5.440438824040357962e-48 1.653698505310528926e-47
3.162277660168379256e+01 4.469144782790952607e-48 1.358459912215148042e-47
3.511191734215130822e+01 3.760077804971262860e-48 1.142928952432265743e-47
3.898603702549071670e+01 3.242089923634399955e-48 9.854791928006362421e-48
4.328761281083057355e+01 2.863629305873745426e-48 8.704407228992511265e-48
4.806380863064389075e+01 2.588046220350055777e-48 7.866733373336619516e-48
5.336699231206312533e+01 2.389557432797390129e-48 7.263398565404758398e-48
5.925530975545680690e+01 2.250097089064102920e-48 6.839489080451568012e-48
6.579332246575683030e+01 2.157015185462949581e-48 6.556553438979965960e-48
7.305271542664456774e+01 2.101458668338909850e-48 6.387681529379018364e-48
8.111308307896872805e+01 2.077256520244225404e-48 6.314115669300547489e-48
9.006280202112786526e+01 2.080157331413090335e-48 6.322933096073076196e-48
1.000000000000000000e+02 2.107308878418533396e-48 6.405464072253456687e-48
1.110336318167637870e+02 2.156902157772352492e-48 6.556209875291368017e-48
1.232846739442065882e+02 2.227928138709563610e-48 6.772103413134425896e-48
1.368874509537080542e+02 2.320011332514908886e-48 7.052003334602580453e-48
1.519911082952934578e+02 2.433296369531980581e-48 7.396349264128262105e-48
1.687612475788148743e+02 2.568372190076986116e-48 7.806931369291940814e-48
1.873817422860385022e+02 2.726223190297165576e-48 8.286741861733103936e-48
2.080567538217171659e+02 2.908200084941340920e-48 8.839886430410808681e-48
2.310129700083160458e+02 3.116005703147522271e-48 9.471541065886484677e-48
2.565020905680045757e+02 3.351692329406340971e-48 1.018794397780533818e-47
2.848035868435802058e+02 3.617668361260493345e-48 1.099641583191762427e-47
3.162277660168379612e+02 3.916712893900710816e-48 1.190540408202563992e-47
3.511191734215130964e+02 4.251997298956967748e-48 1.292454856177863317e-47
3.898603702549071954e+02 4.627113277602845470e-48 1.406476675606042453e-47
4.328761281083056929e+02 5.046107111032729219e-48 1.533835791017021581e-47
4.806380863064393907e+02 5.513520096865966948e-48 1.675912594200540490e-47
5.336699231206312106e+02 6.034435319843971064e-48 1.834252160822572504e-47
5.925530975545680121e+02 6.614531057210024280e-48 2.010580483747600950e-47
6.579332246575681893e+02 7.260141221137503524e-48 2.206822845371523798e-47
7.305271542664456774e+02 7.978323390032503156e-48 2.425124496700509690e-47
8.111308307896872520e+02 8.776935068789400760e-48 2.667873837736757118e-47
9.006280202112785673e+02 9.664718997545236128e-48 2.937728348283744014e-47
1.000000000000000000e+03 1.065139830126301893e-47 3.237643510010931038e-47
1.110336318167637955e+03 1.174778251671127355e-47 3.570905034857255717e-47
1.232846739442065882e+03 1.296588584376323373e-47 3.941164809189875522e-47
1.368874509537082076e+03 1.431905829325183446e-47 4.352480758053873006e-47
1.519911082952934748e+03 1.582213199329423650e-47 4.809361317053656076e-47
1.687612475788148686e+03 1.749158343984577231e-47 5.316814750708937099e-47
1.873817422860385022e+03 1.934571408517161326e-47 5.880404044880743220e-47
2.080567538217171659e+03 2.140485086879907107e-47 6.506307860997138401e-47
2.310129700083160515e+03 2.369156889576917588e-47 7.201388222264529038e-47
2.565020905680045871e+03 2.623093896453205138e-47 7.973265753280455281e-47
2.848035868435802058e+03 2.905080231164823615e-47 8.830403192580403130e-47
3.162277660168379498e+03 3.218207591843177300e-47 9.782198194920059668e-47
3.511191734215134602e+03 3.565909117743235545e-47 1.083908627375355047e-46
3.898603702549071841e+03 3.951997063876455898e-47 1.201265531862106811e-46
4.328761281083061476e+03 4.380704607886237784e-47 1.331577267307340101e-46
4.806380863064388905e+03 4.856732143009747186e-47 1.476272584869201991e-46
5.336699231206313016e+03 5.385298983621714654e-47 1.636937969141931482e-46
5.925530975545674664e+03 5.972200501640416128e-47 1.815335005576433264e-46
6.579332246575682802e+03 6.623871636151069989e-47 2.013419685130637187e-46
7.305271542664449044e+03 7.347457519821351823e-47 2.233363872169706127e-46
8.111308307896872066e+03 8.150891812699413084e-47 2.477579115134419490e-46
9.006280202112795450e+03 9.042983577023115735e-47 2.748743053370993735e-46
1.000000000000000000e+04 1.003351399706692267e-46 3.049828816499666878e-46
