# Mineral: Nchwaningite; Exposure [kg Myr]: 0.01; sigma [nm]:1.0
# Columns: m [GeV], 95% upper limit [cm^2], 5-sig discovery reach [cm^2]
3.162277660168379412e-01 2.266463321689542002e-43 8.863082279733402564e-43
3.511191734215131643e-01 1.891443072112799738e-43 7.391382475839632792e-43
3.898603702549072736e-01 1.616251320919662330e-43 6.310977496802628515e-43
4.328761281083058354e-01 1.406329304335168348e-43 5.487309171500517045e-43
4.806380863064390607e-01 1.232846108002510075e-43 4.826673411539749919e-43
5.336699231206309957e-01 1.034300439938266695e-43 4.035155573610490951e-43
5.925530975545677537e-01 7.796730731426194649e-44 3.039553789977660449e-43
6.579332246575679832e-01 5.404755194221729287e-44 2.111290446596503919e-43
7.305271542664454332e-01 3.641230128913018880e-44 1.424930964680375952e-43
8.111308307896871739e-01 2.538863929147646299e-44 9.940323886877154535e-44
9.006280202112786348e-01 1.838483984991841867e-44 7.197133342911269859e-44
1.000000000000000000e+00 1.385678043908909323e-44 5.422815030428142406e-44
1.110336318167637781e+00 1.082852944196697864e-44 4.236388220639402229e-44
1.232846739442066131e+00 8.628202140705479215e-45 3.408116695324341029e-44
1.368874509537080897e+00 7.114282796684112818e-45 2.806904743837351683e-44
1.519911082952933867e+00 5.989135332760750912e-45 2.361086272531574475e-44
1.687612475788147881e+00 5.112546654265980608e-45 2.014394839579313193e-44
1.873817422860383886e+00 4.412375814017692503e-45 1.737829697536615548e-44
2.080567538217171109e+00 3.840538025635913066e-45 1.512153547896582711e-44
2.310129700083159765e+00 3.373327223344999761e-45 1.327937796104867764e-44
2.565020905680045704e+00 2.995026684537938672e-45 1.178968695366966726e-44
2.848035868435801810e+00 2.698473903138122791e-45 1.062433616550736927e-44
3.162277660168379523e+00 2.482847522669983620e-45 9.780420353428986487e-45
3.511191734215131088e+00 2.351402781979313849e-45 9.271505251774259630e-45
3.898603702549071848e+00 2.312879828357852741e-45 9.133521615776485232e-45
4.328761281083059131e+00 2.416123535798511159e-45 9.453230126664535752e-45
4.806380863064391384e+00 2.656621209192798189e-45 1.039804653797352194e-44
5.336699231206309513e+00 3.077995145890086469e-45 1.204853226555750105e-44
5.925530975545677315e+00 3.294199938812778677e-45 1.289813404951071823e-44
6.579332246575678944e+00 2.538827863350449292e-45 9.953797611686859294e-45
7.305271542664456774e+00 1.622723077397693376e-45 6.365886290912265785e-45
8.111308307896871739e+00 1.068215555934315355e-45 4.189455860285748934e-45
9.006280202112785460e+00 7.537626503618952241e-46 2.955073142752581936e-45
1.000000000000000000e+01 5.655153872289787166e-46 2.216372409836682601e-45
1.110336318167637870e+01 4.457821052006096476e-46 1.746687272866421091e-45
1.232846739442066486e+01 3.656247657152249649e-46 1.432326780839211242e-45
1.368874509537081252e+01 3.096582128271796935e-46 1.212876805422408651e-45
1.519911082952933867e+01 2.693018909607097718e-46 1.054662331688278650e-45
1.687612475788147748e+01 2.395697658232973995e-46 9.381236214782406102e-46
1.873817422860383886e+01 2.175002174556655597e-46 8.516418363365842349e-46
2.080567538217171375e+01 2.012061865075521958e-46 7.878097815420368052e-46
2.310129700083160387e+01 1.893397841764568442e-46 7.413336254703871770e-46
2.565020905680045615e+01 1.808009994149597014e-46 7.078950962352239599e-46
2.848035868435801987e+01 1.746223506167410206e-46 6.837031897017115319e-46
3.162277660168379256e+01 1.699733328806007959e-46 6.655116110498619600e-46
3.511191734215130822e+01 1.662214625849261127e-46 6.508531149777152656e-46
3.898603702549071670e+01 1.629871426940024360e-46 6.382479405093100092e-46
4.328761281083057355e+01 1.601457631942321003e-46 6.272085519844671493e-46
4.806380863064389075e+01 1.577668409085552678e-46 6.180022647051642790e-46
5.336699231206312533e+01 1.560218487854795576e-46 6.112933989486096542e-46
5.925530975545680690e+01 1.551034572464196077e-46 6.078297194684638467e-46
6.579332246575683030e+01 1.551786701710268394e-46 6.082603431776287488e-46
7.305271542664456774e+01 1.563739918618812704e-46 6.130780097923987742e-46
8.111308307896872805e+01 1.587798296656337825e-46 6.226360433453696797e-46
9.006280202112786526e+01 1.624631801389260795e-46 6.371974976585519463e-46
1.000000000000000000e+02 1.674800295371821681e-46 6.569831977419392752e-46
1.110336318167637870e+02 1.738857745750745597e-46 6.822121436784418516e-46
1.232846739442065882e+02 1.817428014961121266e-46 7.131309352895316246e-46
1.368874509537080542e+02 1.911255819819563904e-46 7.500335911684727924e-46
1.519911082952934578e+02 2.021242474918385282e-46 7.932754920294108811e-46
1.687612475788148743e+02 2.148470115783551645e-46 8.432828603496523103e-46
1.873817422860385022e+02 2.294220696038942790e-46 9.005602212218629010e-46
2.080567538217171659e+02 2.459993590767892547e-46 9.656973313321531095e-46
2.310129700083160458e+02 2.647522349600188573e-46 1.039375779688890439e-45
2.565020905680045757e+02 2.858790687070721712e-46 1.122375294243996356e-45
2.848035868435802058e+02 3.096056246642354784e-46 1.215583090399112674e-45
3.162277660168379612e+02 3.361871341241767884e-46 1.320002038770807183e-45
3.511191734215130964e+02 3.659110847091876663e-46 1.436761634470047875e-45
3.898603702549071954e+02 3.990999706621742902e-46 1.567128813698344351e-45
4.328761281083056929e+02 4.361150461762456998e-46 1.712522703762355989e-45
4.806380863064393907e+02 4.773599918092711197e-46 1.874529032272146025e-45
5.336699231206312106e+02 5.232852505551694803e-46 2.054917165416611692e-45
5.925530975545680121e+02 5.743935471222979409e-46 2.255661782770890720e-45
6.579332246575681893e+02 6.312428549155655027e-46 2.478954567132176487e-45
7.305271542664456774e+02 6.944561662119354747e-46 2.727242534250600644e-45
8.111308307896872520e+02 7.647257689594505999e-46 3.003244866568887322e-45
9.006280202112785673e+02 8.428215252516662496e-46 3.309985421250064053e-45
1.000000000000000000e+03 9.295991963204070163e-46 3.650825431405757866e-45
1.110336318167637955e+03 1.026009825064085472e-45 4.029500359069143796e-45
1.232846739442065882e+03 1.133110152713889565e-45 4.450160809887997540e-45
1.368874509537082076e+03 1.252074197432187347e-45 4.917418011314185772e-45
1.519911082952934748e+03 1.384206121253112746e-45 5.436444350799098250e-45
1.687612475788148686e+03 1.530954486290504537e-45 6.012829371202578650e-45
1.873817422860385022e+03 1.693928145655992748e-45 6.652942185676958601e-45
2.080567538217171659e+03 1.874913880064082942e-45 7.363800749497918549e-45
2.310129700083160515e+03 2.075895983133095906e-45 8.153198785587961847e-45
2.565020905680045871e+03 2.299078013743064167e-45 9.029791221537073699e-45
2.848035868435802058e+03 2.546906952673371001e-45 1.000319050046894959e-44
3.162277660168379498e+03 2.822100029582801100e-45 1.108407186511007339e-44
3.511191734215134602e+03 3.127674513779018923e-45 1.228428265862492845e-44
3.898603702549071841e+03 3.466980800535573534e-45 1.361698229409025181e-44
4.328761281083061476e+03 3.843739134199644316e-45 1.509678284548284928e-44
4.806380863064388905e+03 4.262080398755784030e-45 1.673990926156022870e-44
5.336699231206313016e+03 4.726591411656358662e-45 1.856437726726611422e-44
5.925530975545674664e+03 5.242315214454620466e-45 2.059019089117469223e-44
6.579332246575682802e+03 5.815006913999457067e-45 2.283956179395016402e-44
7.305271542664449044e+03 6.450895686424774662e-45 2.533715280250166746e-44
8.111308307896872066e+03 7.156953623743751884e-45 2.811034831993569327e-44
9.006280202112795450e+03 7.940922177886249843e-45 3.118955457609852733e-44
1.000000000000000000e+04 8.811397040322995709e-45 3.460853301070075512e-44
