# Mineral: Zabuyelite; Exposure [kg Myr]: 100.0; sigma [nm]:15.0
# Columns: m [GeV], 95% upper limit [cm^2], 5-sig discovery reach [cm^2]
3.162277660168379412e-01 2.074897722866663394e-43 8.094877259838403221e-43
3.511191734215131643e-01 1.771922439716854920e-43 6.912868285210940079e-43
3.898603702549072736e-01 1.585217414560180682e-43 6.184468882299530684e-43
4.328761281083058354e-01 1.421638728244306471e-43 5.546293143100600891e-43
4.806380863064390607e-01 1.330658614720137423e-43 5.191348972143195671e-43
5.336699231206309957e-01 1.259457622319205085e-43 4.913569837339416973e-43
5.925530975545677537e-01 1.206680311435875180e-43 4.707667710696453361e-43
6.579332246575679832e-01 1.164671305936971405e-43 4.543776382669122707e-43
7.305271542664454332e-01 1.128578183973378842e-43 4.402964915674979603e-43
8.111308307896871739e-01 1.094238937356832978e-43 4.268995909158255247e-43
9.006280202112786348e-01 1.058254564162788269e-43 4.128608707867404260e-43
1.000000000000000000e+00 1.017820370147861669e-43 3.970861251670328287e-43
1.110336318167637781e+00 9.707391031903398587e-44 3.787181317445774174e-43
1.232846739442066131e+00 9.151798920735470667e-44 3.570426057806990430e-43
1.368874509537080897e+00 8.512140030669620084e-44 3.320873506556719778e-43
1.519911082952933867e+00 7.804432481277353765e-44 3.044772873496283217e-43
1.687612475788147881e+00 7.050944391246380355e-44 2.750811704310367375e-43
1.873817422860383886e+00 6.294849865184959862e-44 2.455833676340541876e-43
2.080567538217171109e+00 5.563613682184158532e-44 2.170553728123808021e-43
2.310129700083159765e+00 4.885808484872151247e-44 1.906119013204905535e-43
2.565020905680045704e+00 4.282020320483761960e-44 1.670560844346611901e-43
2.848035868435801810e+00 3.754036553205115255e-44 1.464576532724598684e-43
3.162277660168379523e+00 3.299514436642947167e-44 1.287252093794210168e-43
3.511191734215131088e+00 2.906851271429147015e-44 1.134060922401247007e-43
3.898603702549071848e+00 2.561756729890666724e-44 9.994278787573064505e-44
4.328761281083059131e+00 2.246312918898302216e-44 8.763625871905015724e-44
4.806380863064391384e+00 1.946391016801641952e-44 7.593529168701996446e-44
5.336699231206309513e+00 1.652760246755841676e-44 6.447976297812209642e-44
5.925530975545677315e+00 1.377937383171374601e-44 5.375799426443337989e-44
6.579332246575678944e+00 1.142497252486696570e-44 4.457267906104271782e-44
7.305271542664456774e+00 9.574066673807028141e-45 3.735166979454898309e-44
8.111308307896871739e+00 8.201179634459905927e-45 3.199557346620381440e-44
9.006280202112785460e+00 7.176433077165742689e-45 2.799769081766650012e-44
1.000000000000000000e+01 6.326712443617589155e-45 2.468264345030937320e-44
1.110336318167637870e+01 5.464750752897398387e-45 2.131983958187449377e-44
1.232846739442066486e+01 4.488044478895338870e-45 1.750937831439695337e-44
1.368874509537081252e+01 3.477424715900866938e-45 1.356660906478563661e-44
1.519911082952933867e+01 2.599136127094617170e-45 1.014010844899593311e-44
1.687612475788147748e+01 1.934510735226425152e-45 7.547180175156988023e-45
1.873817422860383886e+01 1.468670228257495404e-45 5.729778919655822760e-45
2.080567538217171375e+01 1.152553584866790191e-45 4.496501057408004806e-45
2.310129700083160387e+01 9.403730338820549007e-46 3.668713018403687133e-45
2.565020905680045615e+01 7.979180181350352003e-46 3.112947857156472161e-45
2.848035868435801987e+01 7.032837192529915334e-46 2.743747474131022307e-45
3.162277660168379256e+01 6.419511192221953535e-46 2.504468273134973505e-45
3.511191734215130822e+01 6.048487666676291760e-46 2.359719456520765593e-45
3.898603702549071670e+01 5.863197462567437587e-46 2.287431485736386915e-45
4.328761281083057355e+01 5.829096928319932527e-46 2.274127714847521549e-45
4.806380863064389075e+01 5.926285087918790068e-46 2.312044100527264984e-45
5.336699231206312533e+01 6.145016350460387147e-46 2.397378558397191240e-45
5.925530975545680690e+01 6.483075933566607922e-46 2.529267026999692115e-45
6.579332246575683030e+01 6.944026674969373224e-46 2.709099489745456283e-45
7.305271542664456774e+01 7.536477309143542914e-46 2.940234504898273387e-45
8.111308307896872805e+01 8.273455108626833022e-46 3.227754451751403046e-45
9.006280202112786526e+01 9.172509269975486869e-46 3.578505864982964321e-45
1.000000000000000000e+02 1.025558921076138709e-45 4.001051954201372714e-45
1.110336318167637870e+02 1.154693963879279463e-45 4.504851399309048467e-45
1.232846739442065882e+02 1.308150385159036363e-45 5.103536761630163140e-45
1.368874509537080542e+02 1.489298876657491453e-45 5.810258248826623471e-45
1.519911082952934578e+02 1.701598058666557807e-45 6.638509107549995062e-45
1.687612475788148743e+02 1.950294192770403580e-45 7.608756777293240800e-45
1.873817422860385022e+02 2.240141214002896996e-45 8.739547965287419671e-45
2.080567538217171659e+02 2.576689202216223747e-45 1.005253540876898368e-44
2.310129700083160458e+02 2.965961188275137940e-45 1.157121698671533308e-44
2.565020905680045757e+02 3.414451861066104781e-45 1.332093067545050199e-44
2.848035868435802058e+02 3.929094042770211402e-45 1.532872375735457142e-44
3.162277660168379612e+02 4.517343558115956179e-45 1.762368392450167994e-44
3.511191734215130964e+02 5.187133256668780398e-45 2.023675990407259533e-44
3.898603702549071954e+02 5.946918362485174926e-45 2.320093838268201868e-44
4.328761281083056929e+02 6.805745394528254834e-45 2.655151288821236991e-44
4.806380863064393907e+02 7.773347422070529192e-45 3.032645541333308489e-44
5.336699231206312106e+02 8.860263134761882587e-45 3.456688094807722530e-44
5.925530975545680121e+02 1.007815018550255140e-44 3.931826993628801188e-44
6.579332246575681893e+02 1.143948115909063487e-44 4.462928214656071328e-44
7.305271542664456774e+02 1.295842673772107513e-44 5.055520219933324464e-44
8.111308307896872520e+02 1.465063915382596227e-44 5.715709474323090224e-44
9.006280202112785673e+02 1.653359114027379432e-44 6.450312681434692912e-44
1.000000000000000000e+03 1.862682447857113127e-44 7.266953750677777373e-44
1.110336318167637955e+03 2.095180401890796140e-44 8.174006845548400816e-44
1.232846739442065882e+03 2.353419257425183032e-44 9.181483896698616562e-44
1.368874509537082076e+03 2.640013922965713336e-44 1.029958654595585593e-43
1.519911082952934748e+03 2.958058527682736477e-44 1.154038603692120854e-43
1.687612475788148686e+03 3.310964397718917170e-44 1.291719110578625514e-43
1.873817422860385022e+03 3.702531295213718644e-44 1.444482590884388680e-43
2.080567538217171659e+03 4.136994387982041879e-44 1.613981326707878061e-43
2.310129700083160515e+03 4.619063351406934709e-44 1.802052721586593558e-43
2.565020905680045871e+03 5.153981310413641411e-44 2.010742295753176467e-43
2.848035868435802058e+03 5.747576292110606370e-44 2.242323759549584397e-43
3.162277660168379498e+03 6.406325588691200076e-44 2.499324123570296402e-43
3.511191734215134602e+03 7.137425925797587808e-44 2.784551073712503349e-43
3.898603702549071841e+03 7.948871672556483662e-44 3.101123483554281234e-43
4.328761281083061476e+03 8.849541826421871137e-44 3.452505350081521356e-43
4.806380863064388905e+03 9.849296844841264768e-44 3.842543570993509207e-43
5.336699231206313016e+03 1.095908321249271513e-43 4.275508739916086929e-43
5.925530975545674664e+03 1.219106436471470339e-43 4.756146224056414747e-43
6.579332246575682802e+03 1.355873726511635224e-43 5.289721645068625193e-43
7.305271542664449044e+03 1.507709081617660631e-43 5.882082680382286615e-43
8.111308307896872066e+03 1.676276721291811441e-43 6.539722012723779010e-43
9.006280202112795450e+03 1.863424424802410363e-43 7.269848453503664530e-43
1.000000000000000000e+04 2.071203772736009008e-43 8.080465911952639281e-43
