# Mineral: Zabuyelite; Exposure [kg Myr]: 100.0; sigma [nm]:15.0
# Columns: m [GeV], 95% upper limit [cm^2], 5-sig discovery reach [cm^2]
3.162277660168379412e-01 2.281561424123140181e-43 6.935129387310266984e-43
3.511191734215131643e-01 1.984681146891529468e-43 6.032719698325868911e-43
3.898603702549072736e-01 1.651168904044108741e-43 5.018961956831869630e-43
4.328761281083058354e-01 1.786195702452548347e-43 5.429395052261979529e-43
4.806380863064390607e-01 1.609944435751225992e-43 4.893654341392987317e-43
5.336699231206309957e-01 1.569845229758456320e-43 4.771767120234721581e-43
5.925530975545677537e-01 1.530513196228062048e-43 4.652211828531742632e-43
6.579332246575679832e-01 1.491525021673242359e-43 4.533701744931152489e-43
7.305271542664454332e-01 1.434809812574315262e-43 4.361307826814052928e-43
8.111308307896871739e-01 1.350597482380287554e-43 4.105332511081788591e-43
9.006280202112786348e-01 1.241164599966009317e-43 3.772695751560398459e-43
1.000000000000000000e+00 1.097326370223409921e-43 3.335479061464068641e-43
1.110336318167637781e+00 9.529407101144515954e-44 2.896598379164372605e-43
1.232846739442066131e+00 8.004220585314386835e-44 2.432996316330232240e-43
1.368874509537080897e+00 6.829913997925770617e-44 2.076049181889582552e-43
1.519911082952933867e+00 5.734292983120955894e-44 1.743019642698115412e-43
1.687612475788147881e+00 4.822709367689713103e-44 1.465930879997043967e-43
1.873817422860383886e+00 4.058836855107634955e-44 1.233741000988965943e-43
2.080567538217171109e+00 3.426802135788801806e-44 1.041625088202045425e-43
2.310129700083159765e+00 2.913457451470546211e-44 8.855866941271069802e-44
2.565020905680045704e+00 2.489804026751670937e-44 7.568112298885453552e-44
2.848035868435801810e+00 2.138395705644362420e-44 6.499956890536858043e-44
3.162277660168379523e+00 1.851310804508657027e-44 5.627321635807974199e-44
3.511191734215131088e+00 1.611069563627054591e-44 4.897074327071934188e-44
3.898603702549071848e+00 1.412310878582119633e-44 4.292919127451117395e-44
4.328761281083059131e+00 1.244748599049585148e-44 3.783589824849769895e-44
4.806380863064391384e+00 1.103750836893540537e-44 3.355007138653110746e-44
5.336699231206309513e+00 9.841325816236890534e-45 2.991410494438480151e-44
5.925530975545677315e+00 8.823153362012377049e-45 2.681922543161603150e-44
6.579332246575678944e+00 7.974698248216160040e-45 2.424022583454700587e-44
7.305271542664456774e+00 7.294397453747634339e-45 2.217235512896544233e-44
8.111308307896871739e+00 6.778342610391543620e-45 2.060373327562301303e-44
9.006280202112785460e+00 6.395210327000600102e-45 1.943914838666128288e-44
1.000000000000000000e+01 6.066373892100453721e-45 1.843960342627486516e-44
1.110336318167637870e+01 5.641593168287399281e-45 1.714842219848433025e-44
1.232846739442066486e+01 4.953109014111146361e-45 1.505567701098176879e-44
1.368874509537081252e+01 4.012749042007889646e-45 1.219731956847288186e-44
1.519911082952933867e+01 3.064263559052257111e-45 9.314263483839608650e-45
1.687612475788147748e+01 2.297838215097986533e-45 6.984605000908592109e-45
1.873817422860383886e+01 1.750095437416749155e-45 5.319663179040253631e-45
2.080567538217171375e+01 1.377154835069740896e-45 4.186057349404550443e-45
2.310129700083160387e+01 1.126633933666253107e-45 3.424563555247108420e-45
2.565020905680045615e+01 9.589849522419956926e-46 2.914970709954836275e-45
2.848035868435801987e+01 8.476828492530065056e-46 2.576652189512182985e-45
3.162277660168379256e+01 7.757393127048162733e-46 2.357969611315044142e-45
3.511191734215130822e+01 7.324766164851091355e-46 2.226466513149332610e-45
3.898603702549071670e+01 7.112460544464530011e-46 2.161933210146111160e-45
4.328761281083057355e+01 7.079659827045644923e-46 2.151962967097143428e-45
4.806380863064389075e+01 7.202766437239820576e-46 2.189382966449469163e-45
5.336699231206312533e+01 7.470090425250476690e-46 2.270639882243360996e-45
5.925530975545680690e+01 7.878468119826507680e-46 2.394772071753214601e-45
6.579332246575683030e+01 8.431234861991348286e-46 2.562793359165559990e-45
7.305271542664456774e+01 9.137361733039998067e-46 2.777430631815846458e-45
8.111308307896872805e+01 1.001129887769365733e-45 3.043076216040209608e-45
9.006280202112786526e+01 1.106880493674968477e-45 3.364520174106635310e-45
1.000000000000000000e+02 1.233397514489120862e-45 3.749086594175900928e-45
1.110336318167637870e+02 1.383232185439676519e-45 4.204530317391253159e-45
1.232846739442065882e+02 1.559371575531267605e-45 4.739930963445115233e-45
1.368874509537080542e+02 1.765094064687514674e-45 5.365253632864995810e-45
1.519911082952934578e+02 2.004182764686529603e-45 6.091997630201919505e-45
1.687612475788148743e+02 2.280607259710380842e-45 6.932229069313438996e-45
1.873817422860385022e+02 2.598709811000816302e-45 7.899146868811439862e-45
2.080567538217171659e+02 2.963146681838895977e-45 9.006904401019852479e-45
2.310129700083160458e+02 3.378748869182304890e-45 1.027018616604330245e-44
2.565020905680045757e+02 3.850772709807905522e-45 1.170496954466383317e-44
2.848035868435802058e+02 4.384714091091160755e-45 1.332796006566708676e-44
3.162277660168379612e+02 4.986458387071156907e-45 1.515704715776720274e-44
3.511191734215130964e+02 5.662359392690935619e-45 1.721154408142017544e-44
3.898603702549071954e+02 6.419252024377156478e-45 1.951222653403619030e-44
4.328761281083056929e+02 7.264688726379518254e-45 2.208205124056173473e-44
4.806380863064393907e+02 8.207008038193072195e-45 2.494636437387997158e-44
5.336699231206312106e+02 9.255491674949658271e-45 2.813337902292852830e-44
5.925530975545680121e+02 1.042055034808789106e-44 3.167474002096825978e-44
6.579332246575681893e+02 1.171390708053817162e-44 3.560608115807517171e-44
7.305271542664456774e+02 1.314857818148208215e-44 3.996696735122456041e-44
8.111308307896872520e+02 1.473936269320127466e-44 4.480238238737323381e-44
9.006280202112785673e+02 1.650277050705776365e-44 5.016251042179105046e-44
1.000000000000000000e+03 1.845733043098946938e-44 5.610367239288601623e-44
1.110336318167637955e+03 2.062379288054018976e-44 6.268894213032372367e-44
1.232846739442065882e+03 2.302520423561078128e-44 6.998837237291350117e-44
1.368874509537082076e+03 2.568739523388061527e-44 7.808047930964853250e-44
1.519911082952934748e+03 2.863909842211096970e-44 8.705259958959281895e-44
1.687612475788148686e+03 3.191210023123538692e-44 9.700135257567648263e-44
1.873817422860385022e+03 3.554234896836905633e-44 1.080360082434797321e-43
2.080567538217171659e+03 3.956918837604256820e-44 1.202761574758715693e-43
2.310129700083160515e+03 4.403662996811029578e-44 1.338555795083720668e-43
2.565020905680045871e+03 4.899254567675033469e-44 1.489197878652570274e-43
2.848035868435802058e+03 5.449268786699492426e-44 1.656382497636080810e-43
3.162277660168379498e+03 6.059653019762889623e-44 1.841917438204060103e-43
3.511191734215134602e+03 6.737089801093294208e-44 2.047833951368064294e-43
3.898603702549071841e+03 7.488968768514863984e-44 2.276378222301722553e-43
4.328761281083061476e+03 8.323584922207394106e-44 2.530071633901257372e-43
4.806380863064388905e+03 9.250054392963481960e-44 2.811685163353162609e-43
5.336699231206313016e+03 1.027853271583130580e-43 3.124305729502219239e-43
5.925530975545674664e+03 1.142029277637273390e-43 3.471359885721623868e-43
6.579332246575682802e+03 1.268785035653554727e-43 3.856651981360621817e-43
7.305271542664449044e+03 1.409510104073444782e-43 4.284405776288632624e-43
8.111308307896872066e+03 1.565747255152050384e-43 4.759310745481516572e-43
9.006280202112795450e+03 1.739209369099920872e-43 5.286573431160545584e-43
1.000000000000000000e+04 1.931798224072214402e-43 5.871974557628180674e-43
